Time(s),Energy_Wh
0,0.3264
1,0.7013
2,1.0277
3,1.3540
4,1.6804
5,2.0068
6,2.3331
7,2.6595
8,2.9858
9,3.3122
10,3.6386
11,3.9649
12,4.2913
13,4.6176
14,4.9440
15,5.2704
16,5.5967
17,5.9231
18,6.2494
19,6.5750
20,6.9006
21,7.2263
22,7.5519
23,7.8775
24,8.2023
25,8.5272
26,8.8520
27,9.1768
28,9.5017
29,9.8265
30,10.1514
31,10.4762
32,10.8010
33,11.1251
34,11.4492
35,11.7732
36,12.0973
37,12.4214
38,12.7454
39,13.0695
40,13.3936
41,13.7177
42,14.0417
43,14.3658
44,14.6899
45,15.0139
46,15.3380
47,15.6621
48,15.9861
49,16.3102
50,16.6343
51,16.9583
52,17.2824
53,17.6065
54,17.9305
55,18.2546
56,18.5787
57,18.9028
58,19.2268
59,19.5509
60,19.8750
61,20.1983
62,20.5216
63,20.8449
64,21.1683
65,21.4916
66,21.8149
67,22.1382
68,22.4616
69,22.7849
70,23.1082
71,23.4315
72,23.7549
73,24.0782
74,24.4015
75,24.7248
76,25.0482
77,25.3707
78,25.6933
79,26.0159
80,26.3385
81,26.6610
82,26.9836
83,27.3062
84,27.6288
85,27.9513
86,28.2739
87,28.5965
88,28.9191
89,29.2409
90,29.5628
91,29.8847
92,30.2066
93,30.5285
94,30.8504
95,31.1723
96,31.4942
97,31.8160
98,32.1379
99,32.4598
100,32.7817
101,33.1036
102,33.4255
103,33.7474
104,34.0693
105,34.3883
106,34.7073
107,35.0263
108,35.3453
109,35.6643
110,35.9833
111,36.3023
112,36.6213
113,36.9404
114,37.2594
115,37.5784
116,37.8974
117,38.2164
118,38.5354
119,38.8544
120,39.1734
121,39.4924
122,39.8115
123,40.1305
124,40.4495
125,40.7685
126,41.0875
127,41.4065
128,41.7255
129,42.0445
130,42.3635
131,42.6826
132,43.0016
133,43.3206
134,43.6396
135,43.9586
136,44.2776
137,44.5959
138,44.9141
139,45.2323
140,45.5506
141,45.8688
142,46.1871
143,46.5053
144,46.8235
145,47.1418
146,47.4600
147,47.7783
148,48.0965
149,48.4147
150,48.7330
151,49.0512
152,49.3695
153,49.6877
154,50.0059
155,50.3242
156,50.6424
157,50.9607
158,51.2789
159,51.5971
160,51.9154
161,52.2336
162,52.5519
163,52.8694
164,53.1870
165,53.5046
166,53.8203
167,54.1359
168,54.4516
169,54.7673
170,55.0830
171,55.3987
172,55.7144
173,56.0297
174,56.3451
175,56.6604
176,56.9757
177,57.2911
178,57.6064
179,57.9218
180,58.2371
181,58.5524
182,58.8678
183,59.1831
184,59.4985
185,59.8138
186,60.1291
187,60.4445
188,60.7598
189,61.0752
190,61.3894
191,61.7037
192,62.0180
193,62.3323
194,62.6466
195,62.9608
196,63.2751
197,63.5894
198,63.9030
199,64.2166
200,64.5302
201,64.8438
202,65.1574
203,65.4710
204,65.7846
205,66.0982
206,66.4118
207,66.7254
208,67.0390
209,67.3526
210,67.6662
211,67.9798
212,68.2934
213,68.6070
214,68.9206
215,69.2342
216,69.5478
217,69.8600
218,70.1721
219,70.4842
220,70.7963
221,71.1084
222,71.4205
223,71.7319
224,72.0433
225,72.3546
226,72.6660
227,72.9774
228,73.2887
229,73.6001
230,73.9115
231,74.2229
232,74.5342
233,74.8456
234,75.1570
235,75.4683
236,75.7797
237,76.0911
238,76.4024
239,76.7138
240,77.0252
241,77.3366
242,77.6479
243,77.9593
244,78.2707
245,78.5820
246,78.8934
247,79.2048
248,79.5161
249,79.8275
250,80.1389
251,80.4503
252,80.7616
253,81.0730
254,81.3844
255,81.6957
256,82.0071
257,82.3185
258,82.6298
259,82.9412
260,83.2526
261,83.5640
262,83.8743
263,84.1846
264,84.4949
265,84.8052
266,85.1155
267,85.4258
268,85.7361
269,86.0464
270,86.3556
271,86.6648
272,86.9740
273,87.2832
274,87.5924
275,87.9016
276,88.2109
277,88.5201
278,88.8293
279,89.1377
280,89.4462
281,89.7546
282,90.0631
283,90.3715
284,90.6800
285,90.9884
286,91.2969
287,91.6053
288,91.9138
289,92.2222
290,92.5301
291,92.8379
292,93.1457
293,93.4536
294,93.7603
295,94.0670
296,94.3737
297,94.6804
298,94.9871
299,95.2938
300,95.6005
301,95.9072
302,96.2139
303,96.5207
304,96.8274
305,97.1341
306,97.4408
307,97.7475
308,98.0535
309,98.3594
310,98.6654
311,98.9714
312,99.2774
313,99.5833
314,99.8893
315,100.1953
316,100.5013
317,100.8072
318,101.1125
319,101.4178
320,101.7231
321,102.0285
322,102.3320
323,102.6355
324,102.9390
325,103.2421
326,103.5452
327,103.8483
328,104.1514
329,104.4545
330,104.7575
331,105.0606
332,105.3637
333,105.6661
334,105.9685
335,106.2709
336,106.5733
337,106.8757
338,107.1781
339,107.4804
340,107.7828
341,108.0852
342,108.3876
343,108.6900
344,108.9924
345,109.2948
346,109.5972
347,109.8982
348,110.1993
349,110.4988
350,110.7983
351,111.0979
352,111.3974
353,111.6969
354,111.9965
355,112.2949
356,112.5933
357,112.8917
358,113.1902
359,113.4886
360,113.7863
361,114.0839
362,114.3816
363,114.6793
364,114.9766
365,115.2740
366,115.5700
367,115.8640
368,116.1580
369,116.4520
370,116.7457
371,117.0394
372,117.3330
373,117.6267
374,117.9204
375,118.2140
376,118.5077
377,118.8014
378,119.0950
379,119.3887
380,119.6824
381,119.9760
382,120.2697
383,120.5634
384,120.8571
385,121.1507
386,121.4444
387,121.7367
388,122.0291
389,122.3215
390,122.6138
391,122.9062
392,123.1985
393,123.4909
394,123.7833
395,124.0756
396,124.3680
397,124.6597
398,124.9514
399,125.2431
400,125.5348
401,125.8265
402,126.1182
403,126.4099
404,126.7016
405,126.9927
406,127.2828
407,127.5709
408,127.8590
409,128.1470
410,128.4351
411,128.7231
412,129.0112
413,129.2993
414,129.5873
415,129.8754
416,130.1634
417,130.4515
418,130.7396
419,131.0276
420,131.3157
421,131.6024
422,131.8892
423,132.1759
424,132.4627
425,132.7494
426,133.0362
427,133.3229
428,133.6090
429,133.8944
430,134.1799
431,134.4648
432,134.7498
433,135.0347
434,135.3181
435,135.6015
436,135.8849
437,136.1683
438,136.4506
439,136.7330
440,137.0153
441,137.2973
442,137.5792
443,137.8612
444,138.1432
445,138.4251
446,138.7071
447,138.9891
448,139.2710
449,139.5524
450,139.8331
451,140.1130
452,140.3930
453,140.6730
454,140.9526
455,141.2322
456,141.5119
457,141.7915
458,142.0708
459,142.3500
460,142.6293
461,142.9082
462,143.1870
463,143.4659
464,143.7448
465,144.0236
466,144.3025
467,144.5813
468,144.8602
469,145.1391
470,145.4179
471,145.6968
472,145.9737
473,146.2506
474,146.5276
475,146.8045
476,147.0815
477,147.3584
478,147.6353
479,147.9123
480,148.1892
481,148.4658
482,148.7425
483,149.0191
484,149.2944
485,149.5697
486,149.8450
487,150.1203
488,150.3956
489,150.6709
490,150.9462
491,151.2215
492,151.4968
493,151.7721
494,152.0473
495,152.3226
496,152.5974
497,152.8722
498,153.1461
499,153.4199
500,153.6937
501,153.9675
502,154.2413
503,154.5151
504,154.7889
505,155.0614
506,155.3339
507,155.6063
508,155.8788
509,156.1492
510,156.4196
511,156.6899
512,156.9603
513,157.2292
514,157.4980
515,157.7668
516,158.0357
517,158.3045
518,158.5727
519,158.8408
520,159.1090
521,159.3757
522,159.6424
523,159.9092
524,160.1759
525,160.4427
526,160.7094
527,160.9761
528,161.2429
529,161.5096
530,161.7758
531,162.0419
532,162.3080
533,162.5742
534,162.8403
535,163.1065
536,163.3726
537,163.6388
538,163.9049
539,164.1707
540,164.4365
541,164.7023
542,164.9681
543,165.2339
544,165.4997
545,165.7655
546,166.0313
547,166.2971
548,166.5629
549,166.8287
550,167.0945
551,167.3602
552,167.6260
553,167.8918
554,168.1576
555,168.4234
556,168.6892
557,168.9537
558,169.2181
559,169.4825
560,169.7470
561,170.0114
562,170.2759
563,170.5403
564,170.8038
565,171.0672
566,171.3307
567,171.5941
568,171.8566
569,172.1191
570,172.3816
571,172.6440
572,172.9065
573,173.1676
574,173.4282
575,173.6889
576,173.9495
577,174.2101
578,174.4708
579,174.7314
580,174.9920
581,175.2527
582,175.5133
583,175.7739
584,176.0342
585,176.2944
586,176.5547
587,176.8149
588,177.0752
589,177.3349
590,177.5947
591,177.8545
592,178.1142
593,178.3740
594,178.6338
595,178.8935
596,179.1533
597,179.4131
598,179.6728
599,179.9326
600,180.1924
601,180.4514
602,180.7104
603,180.9694
604,181.2280
605,181.4867
606,181.7448
607,182.0030
608,182.2612
609,182.5189
610,182.7766
611,183.0340
612,183.2914
613,183.5489
614,183.8063
615,184.0637
616,184.3211
617,184.5785
618,184.8352
619,185.0920
620,185.3487
621,185.6054
622,185.8621
623,186.1184
624,186.3747
625,186.6309
626,186.8872
627,187.1423
628,187.3975
629,187.6526
630,187.9077
631,188.1629
632,188.4180
633,188.6731
634,188.9283
635,189.1834
636,189.4386
637,189.6937
638,189.9488
639,190.2040
640,190.4587
641,190.7135
642,190.9683
643,191.2230
644,191.4778
645,191.7326
646,191.9873
647,192.2421
648,192.4969
649,192.7516
650,193.0064
651,193.2608
652,193.5152
653,193.7696
654,194.0240
655,194.2784
656,194.5328
657,194.7872
658,195.0416
659,195.2960
660,195.5504
661,195.8048
662,196.0592
663,196.3136
664,196.5680
665,196.8224
666,197.0768
667,197.3312
668,197.5856
669,197.8400
670,198.0944
671,198.3488
672,198.6032
673,198.8569
674,199.1106
675,199.3643
676,199.6180
677,199.8717
678,200.1254
679,200.3791
680,200.6316
681,200.8842
682,201.1368
683,201.3894
684,201.6417
685,201.8940
686,202.1462
687,202.3985
688,202.6501
689,202.9017
690,203.1532
691,203.4039
692,203.6545
693,203.9052
694,204.1558
695,204.4065
696,204.6572
697,204.9078
698,205.1579
699,205.4080
700,205.6581
701,205.9082
702,206.1582
703,206.4083
704,206.6584
705,206.9079
706,207.1573
707,207.4059
708,207.6545
709,207.9031
710,208.1517
711,208.4003
712,208.6490
713,208.8976
714,209.1462
715,209.3941
716,209.6420
717,209.8899
718,210.1378
719,210.3855
720,210.6331
721,210.8808
722,211.1284
723,211.3761
724,211.6237
725,211.8713
726,212.1184
727,212.3655
728,212.6126
729,212.8594
730,213.1062
731,213.3530
732,213.5998
733,213.8466
734,214.0934
735,214.3402
736,214.5870
737,214.7847
738,214.9824
739,215.1801
740,215.3778
741,215.5755
742,215.7732
743,215.9708
744,216.1685
745,216.3662
746,216.5639
747,216.7616
748,216.9593
749,217.1570
750,217.3546
751,217.5523
752,217.7500
753,217.9477
754,218.1454
755,218.3431
756,218.5408
757,218.7384
758,218.8871
759,219.0358
760,219.1844
761,219.3331
762,219.4818
763,219.6304
764,219.7791
765,219.9278
766,220.0764
767,220.2251
768,220.3738
769,220.5224
770,220.6711
771,220.8193
772,220.9676
773,221.1158
774,221.2640
775,221.4123
776,221.5599
777,221.7075
778,221.8551
779,222.0027
780,222.1503
781,222.2980
782,222.4456
783,222.5932
784,222.7408
785,222.8884
786,223.0360
787,223.1837
788,223.3313
789,223.4789
790,223.6265
791,223.7250
792,223.8235
793,223.9220
794,224.0205
795,224.1190
796,224.2175
797,224.3160
798,224.4145
799,224.4639
800,224.5134
801,224.5628
802,224.6122
803,224.6617
804,224.7111
805,224.7605
806,224.8100
807,224.8594
808,224.9083
809,224.9573
810,225.0063
811,225.0552
812,225.0552
